        f (GHz),                 E_elec (J),                  E_mag (J),                  E_cap (J),                  E_ind (J)
 2.00000000e+00,        +2.266629502035e-11,        +2.085963442636e-11,        +0.000000000000e+00,        +0.000000000000e+00
 2.05000000e+00,        +2.339475970261e-11,        +2.143744370563e-11,        +0.000000000000e+00,        +0.000000000000e+00
 2.10000000e+00,        +2.418466625939e-11,        +2.207956351192e-11,        +0.000000000000e+00,        +0.000000000000e+00
 2.15000000e+00,        +2.504216907045e-11,        +2.279394307734e-11,        +0.000000000000e+00,        +0.000000000000e+00
 2.20000000e+00,        +2.597406286716e-11,        +2.358958068140e-11,        +0.000000000000e+00,        +0.000000000000e+00
 2.25000000e+00,        +2.698780632839e-11,        +2.447663952703e-11,        +0.000000000000e+00,        +0.000000000000e+00
 2.30000000e+00,        +2.809155124929e-11,        +2.546658580211e-11,        +0.000000000000e+00,        +0.000000000000e+00
 2.35000000e+00,        +2.929409270883e-11,        +2.657227015176e-11,        +0.000000000000e+00,        +0.000000000000e+00
 2.40000000e+00,        +3.060481500198e-11,        +2.780802746133e-11,        +0.000000000000e+00,        +0.000000000000e+00
 2.45000000e+00,        +3.203353492295e-11,        +2.918969233073e-11,        +0.000000000000e+00,        +0.000000000000e+00
 2.50000000e+00,        +3.359032611743e-11,        +3.073464779548e-11,        +0.000000000000e+00,        +0.000000000000e+00
 2.55000000e+00,        +3.528518253943e-11,        +3.246168511720e-11,        +0.000000000000e+00,        +0.000000000000e+00
 2.60000000e+00,        +3.712579580937e-11,        +3.438907786276e-11,        +0.000000000000e+00,        +0.000000000000e+00
 2.65000000e+00,        +3.912047330682e-11,        +3.653757409431e-11,        +0.000000000000e+00,        +0.000000000000e+00
 2.70000000e+00,        +4.127259431419e-11,        +3.892512358293e-11,        +0.000000000000e+00,        +0.000000000000e+00
 2.75000000e+00,        +4.358093875019e-11,        +4.156723316673e-11,        +0.000000000000e+00,        +0.000000000000e+00
 2.80000000e+00,        +4.603681946892e-11,        +4.447389045427e-11,        +0.000000000000e+00,        +0.000000000000e+00
 2.85000000e+00,        +4.862103623205e-11,        +4.764596930291e-11,        +0.000000000000e+00,        +0.000000000000e+00
 2.90000000e+00,        +5.130033244794e-11,        +5.107064910488e-11,        +0.000000000000e+00,        +0.000000000000e+00
 2.95000000e+00,        +5.402362962328e-11,        +5.471586517357e-11,        +0.000000000000e+00,        +0.000000000000e+00
 3.00000000e+00,        +5.671880411053e-11,        +5.852447909461e-11,        +0.000000000000e+00,        +0.000000000000e+00
 3.05000000e+00,        +5.929097191887e-11,        +6.240909462536e-11,        +0.000000000000e+00,        +0.000000000000e+00
 3.10000000e+00,        +6.162384257527e-11,        +6.624936503903e-11,        +0.000000000000e+00,        +0.000000000000e+00
 3.15000000e+00,        +6.358566032142e-11,        +6.989397850415e-11,        +0.000000000000e+00,        +0.000000000000e+00
 3.20000000e+00,        +6.504075435969e-11,        +7.316946130933e-11,        +0.000000000000e+00,        +0.000000000000e+00
 3.25000000e+00,        +6.586620600891e-11,        +7.589663274958e-11,        +0.000000000000e+00,        +0.000000000000e+00
 3.30000000e+00,        +6.597109389617e-11,        +7.791328291485e-11,        +0.000000000000e+00,        +0.000000000000e+00
 3.35000000e+00,        +6.531364856531e-11,        +7.909855255106e-11,        +0.000000000000e+00,        +0.000000000000e+00
 3.40000000e+00,        +6.391110155671e-11,        +7.939260922663e-11,        +0.000000000000e+00,        +0.000000000000e+00
 3.45000000e+00,        +6.183866551445e-11,        +7.880568868602e-11,        +0.000000000000e+00,        +0.000000000000e+00
 3.50000000e+00,        +5.921760218816e-11,        +7.741380386077e-11,        +0.000000000000e+00,        +0.000000000000e+00
 3.55000000e+00,        +5.619602335917e-11,        +7.534298990321e-11,        +0.000000000000e+00,        +0.000000000000e+00
 3.60000000e+00,        +5.292796866151e-11,        +7.274736164821e-11,        +0.000000000000e+00,        +0.000000000000e+00
 3.65000000e+00,        +4.955579925709e-11,        +6.978714869753e-11,        +0.000000000000e+00,        +0.000000000000e+00
 3.70000000e+00,        +4.619873860284e-11,        +6.661130808971e-11,        +0.000000000000e+00,        +0.000000000000e+00
 3.75000000e+00,        +4.294792250372e-11,        +6.334670484100e-11,        +0.000000000000e+00,        +0.000000000000e+00
 3.80000000e+00,        +3.986663171947e-11,        +6.009356980838e-11,        +0.000000000000e+00,        +0.000000000000e+00
 3.85000000e+00,        +3.699375030253e-11,        +5.692566593426e-11,        +0.000000000000e+00,        +0.000000000000e+00
 3.90000000e+00,        +3.434865470974e-11,        +5.389329061028e-11,        +0.000000000000e+00,        +0.000000000000e+00
 3.95000000e+00,        +3.193625930932e-11,        +5.102753206935e-11,        +0.000000000000e+00,        +0.000000000000e+00
 4.00000000e+00,        +2.975149640020e-11,        +4.834469980608e-11,        +0.000000000000e+00,        +0.000000000000e+00
 4.05000000e+00,        +2.778293501773e-11,        +4.585032352196e-11,        +0.000000000000e+00,        +0.000000000000e+00
 4.10000000e+00,        +2.601550919809e-11,        +4.354246409037e-11,        +0.000000000000e+00,        +0.000000000000e+00
 4.15000000e+00,        +2.443246145600e-11,        +4.141429522839e-11,        +0.000000000000e+00,        +0.000000000000e+00
 4.20000000e+00,        +2.301665696028e-11,        +3.945602727456e-11,        +0.000000000000e+00,        +0.000000000000e+00
 4.25000000e+00,        +2.175142090569e-11,        +3.765628408901e-11,        +0.000000000000e+00,        +0.000000000000e+00
 4.30000000e+00,        +2.062103613146e-11,        +3.600305653341e-11,        +0.000000000000e+00,        +0.000000000000e+00
 4.35000000e+00,        +1.961100416049e-11,        +3.448433606911e-11,        +0.000000000000e+00,        +0.000000000000e+00
 4.40000000e+00,        +1.870814999141e-11,        +3.308851726053e-11,        +0.000000000000e+00,        +0.000000000000e+00
 4.45000000e+00,        +1.790062740356e-11,        +3.180463695370e-11,        +0.000000000000e+00,        +0.000000000000e+00
 4.50000000e+00,        +1.717786438119e-11,        +3.062250105088e-11,        +0.000000000000e+00,        +0.000000000000e+00
 4.55000000e+00,        +1.653047540625e-11,        +2.953273597520e-11,        +0.000000000000e+00,        +0.000000000000e+00
 4.60000000e+00,        +1.595015816459e-11,        +2.852679125387e-11,        +0.000000000000e+00,        +0.000000000000e+00
 4.65000000e+00,        +1.542958579562e-11,        +2.759691169027e-11,        +0.000000000000e+00,        +0.000000000000e+00
 4.70000000e+00,        +1.496230144819e-11,        +2.673609179883e-11,        +0.000000000000e+00,        +0.000000000000e+00
 4.75000000e+00,        +1.454261899500e-11,        +2.593802103141e-11,        +0.000000000000e+00,        +0.000000000000e+00
 4.80000000e+00,        +1.416553186268e-11,        +2.519702540611e-11,        +0.000000000000e+00,        +0.000000000000e+00
 4.85000000e+00,        +1.382663073253e-11,        +2.450800912208e-11,        +0.000000000000e+00,        +0.000000000000e+00
 4.90000000e+00,        +1.352203013183e-11,        +2.386639835566e-11,        +0.000000000000e+00,        +0.000000000000e+00
 4.95000000e+00,        +1.324830350775e-11,        +2.326808849442e-11,        +0.000000000000e+00,        +0.000000000000e+00
 5.00000000e+00,        +1.300242614886e-11,        +2.270939544312e-11,        +0.000000000000e+00,        +0.000000000000e+00
 5.05000000e+00,        +1.278172521837e-11,        +2.218701123006e-11,        +0.000000000000e+00,        +0.000000000000e+00
 5.10000000e+00,        +1.258383614149e-11,        +2.169796388718e-11,        +0.000000000000e+00,        +0.000000000000e+00
 5.15000000e+00,        +1.240666461265e-11,        +2.123958142246e-11,        +0.000000000000e+00,        +0.000000000000e+00
 5.20000000e+00,        +1.224835353810e-11,        +2.080945961725e-11,        +0.000000000000e+00,        +0.000000000000e+00
 5.25000000e+00,        +1.210725429017e-11,        +2.040543333882e-11,        +0.000000000000e+00,        +0.000000000000e+00
 5.30000000e+00,        +1.198190171555e-11,        +2.002555104557e-11,        +0.000000000000e+00,        +0.000000000000e+00
 5.35000000e+00,        +1.187099240342e-11,        +1.966805216742e-11,        +0.000000000000e+00,        +0.000000000000e+00
 5.40000000e+00,        +1.177336578057e-11,        +1.933134705902e-11,        +0.000000000000e+00,        +0.000000000000e+00
 5.45000000e+00,        +1.168798765576e-11,        +1.901399924528e-11,        +0.000000000000e+00,        +0.000000000000e+00
 5.50000000e+00,        +1.161393588556e-11,        +1.871470970254e-11,        +0.000000000000e+00,        +0.000000000000e+00
 5.55000000e+00,        +1.155038787795e-11,        +1.843230294358e-11,        +0.000000000000e+00,        +0.000000000000e+00
 5.60000000e+00,        +1.149660968896e-11,        +1.816571469859e-11,        +0.000000000000e+00,        +0.000000000000e+00
 5.65000000e+00,        +1.145194650115e-11,        +1.791398100745e-11,        +0.000000000000e+00,        +0.000000000000e+00
 5.70000000e+00,        +1.141581430216e-11,        +1.767622855909e-11,        +0.000000000000e+00,        +0.000000000000e+00
 5.75000000e+00,        +1.138769260694e-11,        +1.745166613375e-11,        +0.000000000000e+00,        +0.000000000000e+00
 5.80000000e+00,        +1.136711808897e-11,        +1.723957702039e-11,        +0.000000000000e+00,        +0.000000000000e+00
 5.85000000e+00,        +1.135367900452e-11,        +1.703931229766e-11,        +0.000000000000e+00,        +0.000000000000e+00
 5.90000000e+00,        +1.134701031051e-11,        +1.685028488027e-11,        +0.000000000000e+00,        +0.000000000000e+00
 5.95000000e+00,        +1.134678938981e-11,        +1.667196424478e-11,        +0.000000000000e+00,        +0.000000000000e+00
 6.00000000e+00,        +1.135273231040e-11,        +1.650387175971e-11,        +0.000000000000e+00,        +0.000000000000e+00
 6.05000000e+00,        +1.136459055451e-11,        +1.634557655422e-11,        +0.000000000000e+00,        +0.000000000000e+00
 6.10000000e+00,        +1.138214816321e-11,        +1.619669186808e-11,        +0.000000000000e+00,        +0.000000000000e+00
 6.15000000e+00,        +1.140521924910e-11,        +1.605687183280e-11,        +0.000000000000e+00,        +0.000000000000e+00
 6.20000000e+00,        +1.143364583660e-11,        +1.592580864058e-11,        +0.000000000000e+00,        +0.000000000000e+00
 6.25000000e+00,        +1.146729599508e-11,        +1.580323006294e-11,        +0.000000000000e+00,        +0.000000000000e+00
 6.30000000e+00,        +1.150606223470e-11,        +1.568889728657e-11,        +0.000000000000e+00,        +0.000000000000e+00
 6.35000000e+00,        +1.154986013959e-11,        +1.558260303771e-11,        +0.000000000000e+00,        +0.000000000000e+00
 6.40000000e+00,        +1.159862721624e-11,        +1.548416997098e-11,        +0.000000000000e+00,        +0.000000000000e+00
 6.45000000e+00,        +1.165232193884e-11,        +1.539344930149e-11,        +0.000000000000e+00,        +0.000000000000e+00
 6.50000000e+00,        +1.171092297570e-11,        +1.531031966283e-11,        +0.000000000000e+00,        +0.000000000000e+00
 6.55000000e+00,        +1.177442858375e-11,        +1.523468617584e-11,        +0.000000000000e+00,        +0.000000000000e+00
 6.60000000e+00,        +1.184285616036e-11,        +1.516647971599e-11,        +0.000000000000e+00,        +0.000000000000e+00
 6.65000000e+00,        +1.191624194367e-11,        +1.510565636943e-11,        +0.000000000000e+00,        +0.000000000000e+00
 6.70000000e+00,        +1.199464085463e-11,        +1.505219707004e-11,        +0.000000000000e+00,        +0.000000000000e+00
 6.75000000e+00,        +1.207812647556e-11,        +1.500610741150e-11,        +0.000000000000e+00,        +0.000000000000e+00
 6.80000000e+00,        +1.216679116151e-11,        +1.496741763085e-11,        +0.000000000000e+00,        +0.000000000000e+00
 6.85000000e+00,        +1.226074628229e-11,        +1.493618276116e-11,        +0.000000000000e+00,        +0.000000000000e+00
 6.90000000e+00,        +1.236012259441e-11,        +1.491248295325e-11,        +0.000000000000e+00,        +0.000000000000e+00
 6.95000000e+00,        +1.246507074309e-11,        +1.489642396749e-11,        +0.000000000000e+00,        +0.000000000000e+00
 7.00000000e+00,        +1.257576189620e-11,        +1.488813783884e-11,        +0.000000000000e+00,        +0.000000000000e+00
