        f (GHz),             |S[1][1]| (dB),        arg(S[1][1]) (deg.),             |S[2][1]| (dB),        arg(S[2][1]) (deg.)
 2.00000000e+00,        -5.337421707721e+00,        -1.775944874543e+02,        -6.258562515178e+00,        -4.402533923853e+01
 2.05000000e+00,        -5.264721011359e+00,        -1.773508409233e+02,        -6.268469665452e+00,        -4.554369622533e+01
 2.10000000e+00,        -5.183983397165e+00,        -1.771081311029e+02,        -6.280370776027e+00,        -4.711343846128e+01
 2.15000000e+00,        -5.094559957184e+00,        -1.768701403575e+02,        -6.294667147045e+00,        -4.873956511232e+01
 2.20000000e+00,        -4.995785736008e+00,        -1.766414082580e+02,        -6.311842915037e+00,        -5.042763603222e+01
 2.25000000e+00,        -4.886990132882e+00,        -1.764273437349e+02,        -6.332483144949e+00,        -5.218383496742e+01
 2.30000000e+00,        -4.767509864525e+00,        -1.762343339638e+02,        -6.357296401061e+00,        -5.401504953199e+01
 2.35000000e+00,        -4.636708600250e+00,        -1.760698793037e+02,        -6.387142613144e+00,        -5.592893151058e+01
 2.40000000e+00,        -4.494000147729e+00,        -1.759427113699e+02,        -6.423067681263e+00,        -5.793398138810e+01
 2.45000000e+00,        -4.338881558084e+00,        -1.758629128931e+02,        -6.466343803781e+00,        -6.003960965754e+01
 2.50000000e+00,        -4.170962263287e+00,        -1.758420254467e+02,        -6.518529293316e+00,        -6.225626371649e+01
 2.55000000e+00,        -3.990014111847e+00,        -1.758931020682e+02,        -6.581524149203e+00,        -6.459547905429e+01
 2.60000000e+00,        -3.796088031291e+00,        -1.760312276433e+02,        -6.657687148493e+00,        -6.706922091325e+01
 2.65000000e+00,        -3.589443953878e+00,        -1.762723600306e+02,        -6.749853675415e+00,        -6.969152291411e+01
 2.70000000e+00,        -3.370787791677e+00,        -1.766344558904e+02,        -6.861536974537e+00,        -7.247650311066e+01
 2.75000000e+00,        -3.141279030387e+00,        -1.771366431999e+02,        -6.997046316066e+00,        -7.543912355948e+01
 2.80000000e+00,        -2.902657213734e+00,        -1.777989022547e+02,        -7.161658128509e+00,        -7.859454600827e+01
 2.85000000e+00,        -2.657350407419e+00,        -1.786414057745e+02,        -7.361818358804e+00,        -8.195747151538e+01
 2.90000000e+00,        -2.408573418792e+00,        -1.796835815610e+02,        -7.605381515355e+00,        -8.554121709935e+01
 2.95000000e+00,        -2.160408916184e+00,        +1.790572032093e+02,        -7.901872520799e+00,        -8.935639158047e+01
 3.00000000e+00,        -1.917837566377e+00,        +1.775673168866e+02,        -8.262782441368e+00,        -9.340923120990e+01
 3.05000000e+00,        -1.686694482850e+00,        +1.758388631509e+02,        -8.701903619987e+00,        -9.769954122168e+01
 3.10000000e+00,        -1.473514634293e+00,        +1.738718557593e+02,        -9.235732268954e+00,        -1.022184044483e+02
 3.15000000e+00,        -1.285241312376e+00,        +1.716762809738e+02,        -9.884015763866e+00,        -1.069458584703e+02
 3.20000000e+00,        -1.128788161361e+00,        +1.692736206846e+02,        -1.067062287755e+01,        -1.118488627938e+02
 3.25000000e+00,        -1.010482667398e+00,        +1.666973484646e+02,        -1.162510407158e+01,        -1.168797673466e+02
 3.30000000e+00,        -9.354580683797e-01,        +1.639919567564e+02,        -1.278570576805e+01,        -1.219752345321e+02
 3.35000000e+00,        -9.071034626046e-01,        +1.612103491726e+02,        -1.420542987564e+01,        -1.270544590088e+02
 3.40000000e+00,        -9.266903234306e-01,        +1.584098299390e+02,        -1.596481499610e+01,        -1.320129428614e+02
 3.45000000e+00,        -9.932653120125e-01,        +1.556473440580e+02,        -1.820127390928e+01,        -1.366998384545e+02
 3.50000000e+00,        -1.103834531029e+00,        +1.529748719613e+02,        -2.118737995806e+01,        -1.408317644740e+02
 3.55000000e+00,        -1.253788673749e+00,        +1.504358137154e+02,        -2.560391724099e+01,        -1.435665009337e+02
 3.60000000e+00,        -1.437465123802e+00,        +1.480628840958e+02,        -3.419966746793e+01,        -1.389136922690e+02
 3.65000000e+00,        -1.648728659781e+00,        +1.458775963641e+02,        -3.733772827893e+01,        +3.088700029849e-01
 3.70000000e+00,        -1.881475663897e+00,        +1.438910520680e+02,        -2.747060978313e+01,        +1.083656807948e+01
 3.75000000e+00,        -2.130008909220e+00,        +1.421055690859e+02,        -2.317936070532e+01,        +9.507178301437e+00
 3.80000000e+00,        -2.389271325806e+00,        +1.405166726457e+02,        -2.051789843419e+01,        +6.869229630804e+00
 3.85000000e+00,        -2.654955750972e+00,        +1.391150799501e+02,        -1.864205742700e+01,        +3.967723781791e+00
 3.90000000e+00,        -2.923521210086e+00,        +1.378884503581e+02,        -1.722886385637e+01,        +1.066908298499e+00
 3.95000000e+00,        -3.192147914000e+00,        +1.368227987336e+02,        -1.611944157271e+01,        -1.743503812716e+00
 4.00000000e+00,        -3.458658259884e+00,        +1.359035579480e+02,        -1.522352407247e+01,        -4.430968065154e+00
 4.05000000e+00,        -3.721423908852e+00,        +1.351163266708e+02,        -1.448478939147e+01,        -6.985874744377e+00
 4.10000000e+00,        -3.979272065424e+00,        +1.344473597631e+02,        -1.386571928180e+01,        -9.408875913279e+00
 4.15000000e+00,        -4.231398528433e+00,        +1.338838617806e+02,        -1.334009385024e+01,        -1.170540604066e+01
 4.20000000e+00,        -4.477291221203e+00,        +1.334141367640e+02,        -1.288890922518e+01,        -1.388305363276e+01
 4.25000000e+00,        -4.716665212393e+00,        +1.330276406032e+02,        -1.249799259697e+01,        -1.595022054250e+01
 4.30000000e+00,        -4.949409050942e+00,        +1.327149668631e+02,        -1.215652896229e+01,        -1.791541052588e+01
 4.35000000e+00,        -5.175541228416e+00,        +1.324677931608e+02,        -1.185610842389e+01,        -1.978685436673e+01
 4.40000000e+00,        -5.395175425102e+00,        +1.322788046993e+02,        -1.159008701340e+01,        -2.157231917256e+01
 4.45000000e+00,        -5.608493113500e+00,        +1.321416070567e+02,        -1.135314444945e+01,        -2.327902243188e+01
 4.50000000e+00,        -5.815722196638e+00,        +1.320506360845e+02,        -1.114097016237e+01,        -2.491360610625e+01
 4.55000000e+00,        -6.017120518044e+00,        +1.320010698471e+02,        -1.095003545482e+01,        -2.648214482917e+01
 4.60000000e+00,        -6.212963256551e+00,        +1.319887455168e+02,        -1.077742503870e+01,        -2.799017283660e+01
 4.65000000e+00,        -6.403533388854e+00,        +1.320100827708e+02,        -1.062071043476e+01,        -2.944272040119e+01
 4.70000000e+00,        -6.589114554837e+00,        +1.320620143418e+02,        -1.047785347026e+01,        -3.084435422411e+01
 4.75000000e+00,        -6.769985791109e+00,        +1.321419237994e+02,        -1.034713178998e+01,        -3.219921848612e+01
 4.80000000e+00,        -6.946417707076e+00,        +1.322475902965e+02,        -1.022708071216e+01,        -3.351107464888e+01
 4.85000000e+00,        -7.118669766915e+00,        +1.323771398147e+02,        -1.011644738432e+01,        -3.478333896044e+01
 4.90000000e+00,        -7.286988412744e+00,        +1.325290023497e+02,        -1.001415430665e+01,        -3.601911715400e+01
 4.95000000e+00,        -7.451605821749e+00,        +1.327018744393e+02,        -9.919270067088e+00,        -3.722123615766e+01
 5.00000000e+00,        -7.612739135661e+00,        +1.328946864456e+02,        -9.830985683060e+00,        -3.839227283017e+01
 5.05000000e+00,        -7.770590036986e+00,        +1.331065740303e+02,        -9.748595341106e+00,        -3.953457985165e+01
 5.10000000e+00,        -7.925344574682e+00,        +1.333368533015e+02,        -9.671480614599e+00,        -4.065030895984e+01
 5.15000000e+00,        -8.077173164189e+00,        +1.335849991598e+02,        -9.599097453004e+00,        -4.174143174981e+01
 5.20000000e+00,        -8.226230704055e+00,        +1.338506264148e+02,        -9.530965395169e+00,        -4.280975826315e+01
 5.25000000e+00,        -8.372656764940e+00,        +1.341334732920e+02,        -9.466658578915e+00,        -4.385695358736e+01
 5.30000000e+00,        -8.516575817375e+00,        +1.344333869901e+02,        -9.405798210354e+00,        -4.488455267473e+01
 5.35000000e+00,        -8.658097472851e+00,        +1.347503109886e+02,        -9.348046226171e+00,        -4.589397357415e+01
 5.40000000e+00,        -8.797316719305e+00,        +1.350842738405e+02,        -9.293099936110e+00,        -4.688652925270e+01
 5.45000000e+00,        -8.934314137062e+00,        +1.354353792117e+02,        -9.240687474948e+00,        -4.786343816653e+01
 5.50000000e+00,        -9.069156085294e+00,        +1.358037969610e+02,        -9.190563926141e+00,        -4.882583372407e+01
 5.55000000e+00,        -9.201894852185e+00,        +1.361897550713e+02,        -9.142508005373e+00,        -4.977477276924e+01
 5.60000000e+00,        -9.332568764543e+00,        +1.365935322652e+02,        -9.096319212800e+00,        -5.071124319799e+01
 5.65000000e+00,        -9.461202254665e+00,        +1.370154511554e+02,        -9.051815379312e+00,        -5.163617080875e+01
 5.70000000e+00,        -9.587805884036e+00,        +1.374558717923e+02,        -9.008830545284e+00,        -5.255042547568e+01
 5.75000000e+00,        -9.712376324948e+00,        +1.379151854835e+02,        -8.967213120995e+00,        -5.345482672359e+01
 5.80000000e+00,        -9.834896302547e+00,        +1.383938087722e+02,        -8.926824286497e+00,        -5.435014877395e+01
 5.85000000e+00,        -9.955334501093e+00,        +1.388921774680e+02,        -8.887536595778e+00,        -5.523712512366e+01
 5.90000000e+00,        -1.007364543956e+01,        +1.394107406323e+02,        -8.849232755791e+00,        -5.611645271101e+01
 5.95000000e+00,        -1.018976932298e+01,        +1.399499544271e+02,        -8.811804555662e+00,        -5.698879571716e+01
 6.00000000e+00,        -1.030363187724e+01,        +1.405102757448e+02,        -8.775151925290e+00,        -5.785478904594e+01
 6.05000000e+00,        -1.041514417667e+01,        +1.410921555405e+02,        -8.739182105777e+00,        -5.871504152020e+01
 6.10000000e+00,        -1.052420247494e+01,        +1.416960317986e+02,        -8.703808916808e+00,        -5.957013882844e+01
 6.15000000e+00,        -1.063068805166e+01,        +1.423223220713e+02,        -8.668952108343e+00,        -6.042064625239e+01
 6.20000000e+00,        -1.073446708862e+01,        +1.429714155389e+02,        -8.634536785865e+00,        -6.126711120245e+01
 6.25000000e+00,        -1.083539059106e+01,        +1.436436645502e+02,        -8.600492900010e+00,        -6.211006558571e+01
 6.30000000e+00,        -1.093329437148e+01,        +1.443393756175e+02,        -8.566754792718e+00,        -6.295002802846e+01
 6.35000000e+00,        -1.102799911455e+01,        +1.450587998538e+02,        -8.533260793203e+00,        -6.378750597347e+01
 6.40000000e+00,        -1.111931054346e+01,        +1.458021228611e+02,        -8.499952857982e+00,        -6.462299767018e+01
 6.45000000e+00,        -1.120701970915e+01,        +1.465694540978e+02,        -8.466776250036e+00,        -6.545699407476e+01
 6.50000000e+00,        -1.129090342445e+01,        +1.473608157798e+02,        -8.433679252880e+00,        -6.628998067547e+01
 6.55000000e+00,        -1.137072486573e+01,        +1.481761313963e+02,        -8.400612915938e+00,        -6.712243925790e+01
 6.60000000e+00,        -1.144623436398e+01,        +1.490152139523e+02,        -8.367530828139e+00,        -6.795484962355e+01
 6.65000000e+00,        -1.151717040627e+01,        +1.498777540821e+02,        -8.334388917137e+00,        -6.878769127469e+01
 6.70000000e+00,        -1.158326086610e+01,        +1.507633082122e+02,        -8.301145271949e+00,        -6.962144507780e+01
 6.75000000e+00,        -1.164422447810e+01,        +1.516712869852e+02,        -8.267759987208e+00,        -7.045659491729e+01
 6.80000000e+00,        -1.169977256766e+01,        +1.526009441894e+02,        -8.234195027511e+00,        -7.129362935128e+01
 6.85000000e+00,        -1.174961104057e+01,        +1.535513664678e+02,        -8.200414110723e+00,        -7.213304328056e+01
 6.90000000e+00,        -1.179344263022e+01,        +1.545214641039e+02,        -8.166382609303e+00,        -7.297533964217e+01
 6.95000000e+00,        -1.183096939186e+01,        +1.555099631957e+02,        -8.132067469063e+00,        -7.382103113892e+01
 7.00000000e+00,        -1.186189542376e+01,        +1.565153995357e+02,        -8.097437144990e+00,        -7.467064201626e+01
